% 1/CLOCKS_PER_SEC: 0.001000 	True resolution: 0.010000
%
%Size:		MFLOPS:		Time (sec):	MFLOPS/Sec:
100		9.950000	0.120000	82.916667
101		10.252005	0.131000	78.259580
102		10.560060	0.130000	81.231231
103		10.874225	0.140000	77.673036
104		11.194560	0.130000	86.112000
105		11.521125	0.150000	76.807500
106		11.853980	0.151000	78.503179
107		12.193185	0.160000	76.207406
108		12.538800	0.150000	83.592000
109		12.890885	0.160000	80.568031
110		13.249500	0.160000	82.809375
111		13.614705	0.171000	79.618158
112		13.986560	0.160000	87.416000
113		14.365125	0.180000	79.806250
114		14.750460	0.191000	77.227539
115		15.142625	0.190000	79.698026
116		15.541680	0.190000	81.798316
117		15.947685	0.200000	79.738425
118		16.360700	0.201000	81.396517
119		16.780785	0.230000	72.959935
120		17.208000	0.200000	86.040000
121		17.642405	0.221000	79.829887
122		18.084060	0.230000	78.626348
123		18.533025	0.240000	77.220937
124		18.989360	0.231000	82.205022
125		19.453125	0.250000	77.812500
126		19.924380	0.250000	79.697520
127		20.403185	0.271000	75.288506
128		20.889600	0.320000	65.280000
129		21.383685	0.271000	78.906587
130		21.885500	0.280000	78.162500
131		22.395105	0.280000	79.982518
132		22.912560	0.281000	81.539359
133		23.437925	0.300000	78.126417
134		23.971260	0.311000	77.078006
135		24.512625	0.300000	81.708750
136		25.062080	0.281000	89.188897
137		25.619685	0.320000	80.061516
138		26.185500	0.330000	79.350000
139		26.759585	0.341000	78.473856
140		27.342000	0.330000	82.854545
141		27.932805	0.351000	79.580641
142		28.532060	0.360000	79.255722
143		29.139825	0.371000	78.544003
144		29.756160	0.341000	87.261466
145		30.381125	0.380000	79.950329
146		31.014780	0.421000	73.669311
147		31.657185	0.390000	81.172269
148		32.308400	0.381000	84.798950
149		32.968485	0.420000	78.496393
150		33.637500	0.421000	79.899050
151		34.315505	0.431000	79.618341
152		35.002560	0.400000	87.506400
153		35.698725	0.451000	79.154601
154		36.404060	0.461000	78.967592
155		37.118625	0.480000	77.330469
156		37.842480	0.451000	83.907938
157		38.575685	0.491000	78.565550
158		39.318300	0.490000	80.241429
159		40.070385	0.501000	79.980808
160		40.832000	0.611000	66.828151
161		41.603205	0.521000	79.852601
162		42.384060	0.530000	79.969925
163		43.174625	0.561000	76.960116
164		43.974960	0.521000	84.404914
165		44.785125	0.561000	79.830882
166		45.605180	0.591000	77.166125
167		46.435185	0.581000	79.922866
168		47.275200	0.540000	87.546667
169		48.125285	0.611000	78.764787
170		48.985500	0.621000	78.881643
171		49.855905	0.711000	70.120823
172		50.736560	0.601000	84.420233
173		51.627525	0.651000	79.304954
174		52.528860	0.661000	79.468775
175		53.440625	0.671000	79.643256
176		54.362880	0.641000	84.809485
177		55.295685	0.691000	80.022699
178		56.239100	0.751000	74.885619
179		57.193185	0.711000	80.440485
180		58.158000	0.691000	84.164978
181		59.133605	0.741000	79.802436
182		60.120060	0.781000	76.978310
183		61.117425	0.771000	79.270331
184		62.125760	0.711000	87.378003
185		63.145125	0.791000	79.829488
186		64.175580	0.872000	73.595849
187		65.217185	0.831000	78.480367
188		66.270000	0.781000	84.852753
189		67.334085	0.841000	80.064310
190		68.409500	0.851000	80.387192
191		69.496305	0.882000	78.793997
192		70.594560	1.041000	67.814179
193		71.704325	0.902000	79.494817
194		72.825660	0.901000	80.827592
195		73.958625	1.061000	69.706527
196		75.103280	0.892000	84.196502
197		76.259685	1.051000	72.559167
198		77.427900	0.982000	78.847149
199		78.607985	0.981000	80.130464
200		79.800000	0.921000	86.644951
201		81.004005	1.022000	79.260279
202		82.220060	1.031000	79.747876
203		83.448225	1.042000	80.084669
204		84.688560	1.011000	83.767122
205		85.941125	1.272000	67.563778
206		87.205980	1.082000	80.597024
207		88.483185	1.121000	78.932368
208		89.772800	1.122000	80.011408
209		91.074885	1.262000	72.167104
210		92.389500	1.232000	74.991477
211		93.716705	1.171000	80.031345
212		95.056560	1.132000	83.972226
213		96.409125	1.202000	80.207259
214		97.774460	1.241000	78.786833
215		99.152625	1.242000	79.833031
216		100.543680	1.152000	87.277500
217		101.947685	1.292000	78.906877
218		103.364700	1.282000	80.627691
219		104.794785	1.312000	79.874074
220		106.238000	1.271000	83.586153
221		107.694405	1.352000	79.655625
222		109.164060	1.362000	80.149824
223		110.647025	1.402000	78.920845
224		112.143360	1.683000	66.633012
225		113.653125	1.432000	79.366707
226		115.176380	1.452000	79.322576
227		116.713185	1.462000	79.831180
228		118.263600	1.422000	83.167089
229		119.827685	1.492000	80.313462
230		121.405500	1.532000	79.246410
231		122.997105	1.552000	79.250712
232		124.602560	1.422000	87.624866
233		126.221925	1.602000	78.790215
234		127.855260	1.753000	72.935117
235		129.502625	1.742000	74.341346
236		131.164080	1.572000	83.437710
237		132.839685	1.673000	79.402083
238		134.529500	1.712000	78.580315
239		136.233585	1.923000	70.844298
240		137.952000	1.923000	71.737910
241		139.684805	2.093000	66.739037
242		141.432060	1.893000	74.713185
243		143.193825	2.023000	70.782909
244		144.970160	1.722000	84.187085
245		146.761125	1.863000	78.776771
246		148.566780	1.882000	78.940903
247		150.387185	1.922000	78.245153
248		152.222400	1.743000	87.333563
249		154.072485	1.973000	78.090464
250		155.937500	1.973000	79.035732
251		157.817505	2.002000	78.829923
252		159.712560	1.933000	82.624190
253		161.622725	2.063000	78.343541
254		163.548060	2.053000	79.662962
255		165.488625	2.083000	79.447252
256		167.444480	2.474000	67.681681
257		169.415685	2.203000	76.902263
258		171.402300	2.183000	78.516858
259		173.404385	2.193000	79.071767
260		175.422000	2.143000	81.858143
261		177.455205	2.654000	66.863303
262		179.504060	2.584000	69.467515
263		181.568625	2.343000	77.494078
264		183.648960	2.163000	84.904743
265		185.745125	2.384000	77.913224
266		187.857180	2.524000	74.428360
267		189.985185	2.493000	76.207455
268		192.129200	2.353000	81.652869
269		194.289285	2.483000	78.247799
270		196.465500	2.574000	76.326923
271		198.657905	2.744000	72.397196
272		200.866560	3.124000	64.297875
273		203.091525	3.275000	62.012679
274		205.332860	2.824000	72.709936
275		207.590625	2.694000	77.056654
276		209.864880	2.614000	80.284958
277		212.155685	2.774000	76.480059
278		214.463100	2.814000	76.212900
279		216.787185	2.894000	74.909186
280		219.128000	2.644000	82.877458
281		221.485605	2.934000	75.489300
282		223.860060	3.135000	71.406718
283		226.251425	2.994000	75.568278
284		228.659760	2.894000	79.011666
285		231.085125	3.024000	76.417039
286		233.527580	3.084000	75.722302
287		235.987185	3.124000	75.540072
288		238.464000	3.926000	60.739684
289		240.958085	3.175000	75.892310
290		243.469500	3.234000	75.284323
291		245.998305	3.235000	76.042753
292		248.544560	3.245000	76.593085
293		251.108325	3.405000	73.746938
294		253.689660	3.355000	75.615398
295		256.288625	3.414000	75.069896
296		258.905280	3.225000	80.280707
297		261.539685	3.485000	75.047255
298		264.191900	3.535000	74.736040
299		266.861985	3.535000	75.491368
300		269.550000	3.425000	78.700730
