% 1/CLOCKS_PER_SEC: 0.000001 	True resolution: 0.010000
%
%%Size:		MFLOPS:		Time (sec):	MFLOPS/Sec:
100		9.950000	0.040000	248.750000
101		10.252005	0.040000	256.300125
102		10.560060	0.030000	352.002000
103		10.874225	0.040000	271.855625
104		11.194560	0.040000	279.864000
105		11.521125	0.050000	230.422500
106		11.853980	0.050000	237.079600
107		12.193185	0.050000	243.863700
108		12.538800	0.040000	313.470000
109		12.890885	0.050000	257.817700
110		13.249500	0.040000	331.237500
111		13.614705	0.050000	272.294100
112		13.986560	0.050000	279.731200
113		14.365125	0.050000	287.302500
114		14.750460	0.050000	295.009200
115		15.142625	0.060000	252.377083
116		15.541680	0.050000	310.833600
117		15.947685	0.060000	265.794750
118		16.360700	0.060000	272.678333
119		16.780785	0.060000	279.679750
120		17.208000	0.060000	286.800000
121		17.642405	0.060000	294.040083
122		18.084060	0.070000	258.343714
123		18.533025	0.070000	264.757500
124		18.989360	0.070000	271.276571
125		19.453125	0.070000	277.901786
126		19.924380	0.070000	284.634000
127		20.403185	0.070000	291.474071
128		20.889600	0.070000	298.422857
129		21.383685	0.080000	267.296063
130		21.885500	0.070000	312.650000
131		22.395105	0.080000	279.938812
132		22.912560	0.080000	286.407000
133		23.437925	0.090000	260.421389
134		23.971260	0.090000	266.347333
135		24.512625	0.090000	272.362500
136		25.062080	0.090000	278.467556
137		25.619685	0.100000	256.196850
138		26.185500	0.090000	290.950000
139		26.759585	0.100000	267.595850
140		27.342000	0.100000	273.420000
141		27.932805	0.090000	310.364500
142		28.532060	0.100000	285.320600
143		29.139825	0.110000	264.907500
144		29.756160	0.100000	297.561600
145		30.381125	0.100000	303.811250
146		31.014780	0.110000	281.952545
147		31.657185	0.110000	287.792591
148		32.308400	0.120000	269.236667
149		32.968485	0.110000	299.713500
150		33.637500	0.120000	280.312500
151		34.315505	0.120000	285.962542
152		35.002560	0.130000	269.250462
153		35.698725	0.130000	274.605577
154		36.404060	0.130000	280.031231
155		37.118625	0.140000	265.133036
156		37.842480	0.140000	270.303429
157		38.575685	0.140000	275.540607
158		39.318300	0.140000	280.845000
159		40.070385	0.140000	286.217036
160		40.832000	0.140000	291.657143
161		41.603205	0.140000	297.165750
162		42.384060	0.140000	302.743286
163		43.174625	0.150000	287.830833
164		43.974960	0.150000	293.166400
165		44.785125	0.160000	279.907031
166		45.605180	0.150000	304.034533
167		46.435185	0.160000	290.219906
168		47.275200	0.170000	278.089412
169		48.125285	0.170000	283.089912
170		48.985500	0.170000	288.150000
171		49.855905	0.180000	276.977250
172		50.736560	0.180000	281.869778
173		51.627525	0.180000	286.819583
174		52.528860	0.180000	291.827000
175		53.440625	0.180000	296.892361
176		54.362880	0.180000	302.016000
177		55.295685	0.190000	291.029921
178		56.239100	0.200000	281.195500
179		57.193185	0.200000	285.965925
180		58.158000	0.190000	306.094737
181		59.133605	0.210000	281.588595
182		60.120060	0.210000	286.286000
183		61.117425	0.220000	277.806477
184		62.125760	0.230000	270.112000
185		63.145125	0.220000	287.023295
186		64.175580	0.240000	267.398250
187		65.217185	0.220000	296.441750
188		66.270000	0.230000	288.130435
189		67.334085	0.240000	280.558688
190		68.409500	0.230000	297.432609
191		69.496305	0.230000	302.157848
192		70.594560	0.240000	294.144000
193		71.704325	0.240000	298.768021
194		72.825660	0.240000	303.440250
195		73.958625	0.250000	295.834500
196		75.103280	0.260000	288.858769
197		76.259685	0.260000	293.306481
198		77.427900	0.260000	297.799615
199		78.607985	0.270000	291.140685
200		79.800000	0.270000	295.555556
201		81.004005	0.280000	289.300018
202		82.220060	0.280000	293.643071
203		83.448225	0.290000	287.752500
204		84.688560	0.290000	292.029517
205		85.941125	0.320000	268.566016
206		87.205980	0.300000	290.686600
207		88.483185	0.300000	294.943950
208		89.772800	0.300000	299.242667
209		91.074885	0.310000	293.789952
210		92.389500	0.320000	288.717188
211		93.716705	0.320000	292.864703
212		95.056560	0.330000	288.050182
213		96.409125	0.340000	283.556250
214		97.774460	0.340000	287.571941
215		99.152625	0.340000	291.625368
216		100.543680	0.340000	295.716706
217		101.947685	0.350000	291.279100
218		103.364700	0.360000	287.124167
219		104.794785	0.370000	283.229149
220		106.238000	0.370000	287.129730
221		107.694405	0.380000	283.406329
222		109.164060	0.380000	287.273842
223		110.647025	0.390000	283.710321
224		112.143360	0.370000	303.090162
225		113.653125	0.390000	291.418269
226		115.176380	0.390000	295.324051
227		116.713185	0.400000	291.782962
228		118.263600	0.400000	295.659000
229		119.827685	0.410000	292.262646
230		121.405500	0.410000	296.110976
231		122.997105	0.420000	292.850250
232		124.602560	0.430000	289.773395
233		126.221925	0.440000	286.868011
234		127.855260	0.440000	290.580136
235		129.502625	0.450000	287.783611
236		131.164080	0.450000	291.475733
237		132.839685	0.460000	288.781924
238		134.529500	0.460000	292.455435
239		136.233585	0.470000	289.858691
240		137.952000	0.460000	299.895652
241		139.684805	0.480000	291.010010
242		141.432060	0.480000	294.650125
243		143.193825	0.490000	292.232296
244		144.970160	0.500000	289.940320
245		146.761125	0.500000	293.522250
246		148.566780	0.510000	291.307412
247		150.387185	0.520000	289.206125
248		152.222400	0.540000	281.893333
249		154.072485	0.540000	285.319417
250		155.937500	0.550000	283.522727
251		157.817505	0.550000	286.940918
252		159.712560	0.580000	275.366483
253		161.622725	0.560000	288.612009
254		163.548060	0.570000	286.926421
255		165.488625	0.570000	290.330921
256		167.444480	0.560000	299.008000
257		169.415685	0.570000	297.220500
258		171.402300	0.590000	290.512373
259		173.404385	0.600000	289.007308
260		175.422000	0.620000	282.938710
261		177.455205	0.620000	286.218073
262		179.504060	0.620000	289.522677
263		181.568625	0.620000	292.852621
264		183.648960	0.630000	291.506286
265		185.745125	0.640000	290.226758
266		187.857180	0.650000	289.011046
267		189.985185	0.660000	287.856341
268		192.129200	0.670000	286.760000
269		194.289285	0.670000	289.984007
270		196.465500	0.680000	288.919853
271		198.657905	0.680000	292.143978
272		200.866560	0.680000	295.392000
273		203.091525	0.710000	286.044401
274		205.332860	0.720000	285.184528
275		207.590625	0.730000	284.370719
276		209.864880	0.740000	283.601189
277		212.155685	0.740000	286.696872
278		214.463100	0.760000	282.188289
279		216.787185	0.760000	285.246296
280		219.128000	0.770000	284.581818
281		221.485605	0.780000	283.955904
282		223.860060	0.790000	283.367165
283		226.251425	0.800000	282.814281
284		228.659760	0.810000	282.296000
285		231.085125	0.810000	285.290278
286		233.527580	0.830000	281.358530
287		235.987185	0.820000	287.789250
288		238.464000	0.800000	298.080000
289		240.958085	0.820000	293.851323
290		243.469500	0.840000	289.844643
291		245.998305	0.850000	289.409771
292		248.544560	0.870000	285.683402
293		251.108325	0.900000	279.009250
294		253.689660	0.870000	291.597310
295		256.288625	0.900000	284.765139
296		258.905280	0.890000	290.904809
297		261.539685	0.910000	287.406247
298		264.191900	0.940000	281.055213
299		266.861985	0.940000	283.895729
300		269.550000	0.930000	289.838710
301		272.256005	0.940000	289.634048
302		274.980060	0.990000	277.757636
303		277.722225	0.950000	292.339184
304		280.482560	0.930000	301.594151
305		283.261125	0.980000	289.041964
306		286.057980	1.020000	280.449000
307		288.873185	1.040000	277.762678
308		291.706800	1.050000	277.816000
309		294.558885	1.060000	277.885741
310		297.429500	1.030000	288.766505
311		300.318705	1.040000	288.767986
312		303.226560	1.060000	286.062792
313		306.153125	1.060000	288.823703
314		309.098460	1.080000	286.202278
315		312.062625	1.160000	269.019504
316		315.045680	1.100000	286.405164
317		318.047685	1.180000	269.531936
318		321.068700	1.060000	302.895000
319		324.108785	1.120000	289.382844
320		327.168000	1.150000	284.493913
321		330.246405	1.200000	275.205337
322		333.344060	1.140000	292.407070
323		336.461025	1.210000	278.066963
324		339.597360	1.170000	290.254154
325		342.753125	1.160000	295.476832
326		345.928380	1.180000	293.159644
327		349.123185	1.190000	293.380828
328		352.337600	1.250000	281.870080
329		355.571685	1.240000	286.751359
330		358.825500	1.240000	289.375403
331		362.099105	1.270000	285.117406
332		365.392560	1.300000	281.071200
333		368.705925	1.300000	283.619942
334		372.039260	1.330000	279.728767
335		375.392625	1.330000	282.250094
336		378.766080	1.360000	278.504471
337		382.159685	1.410000	271.035238
338		385.573500	1.390000	277.391007
339		389.007585	1.380000	281.889554
340		392.462000	1.430000	274.448951
341		395.936805	1.480000	267.524868
342		399.432060	1.420000	281.290183
343		402.947825	1.460000	275.991661
344		406.484160	1.540000	263.950753
345		410.041125	1.460000	280.850086
346		413.618780	1.470000	281.373320
347		417.217185	1.490000	280.011534
348		420.836400	1.490000	282.440537
349		424.476485	1.510000	281.110255
350		428.137500	1.520000	281.669408
351		431.819505	1.560000	276.807375
352		435.522560	1.520000	286.528000
353		439.246725	1.470000	298.807296
354		442.992060	1.570000	282.160548
355		446.758625	1.560000	286.383734
356		450.546480	1.560000	288.811846
357		454.355685	1.580000	287.566889
358		458.186300	1.670000	274.363054
359		462.038385	1.590000	290.590179
360		465.912000	1.600000	291.195000
361		469.807205	1.680000	279.647146
362		473.724060	1.740000	272.255207
363		477.662625	1.680000	284.322991
364		481.622960	1.670000	288.396982
365		485.605125	1.720000	282.328561
366		489.609180	1.730000	283.011087
367		493.635185	1.710000	288.675547
368		497.683200	1.680000	296.240000
369		501.753285	1.720000	291.717026
370		505.845500	1.780000	284.182865
371		509.959905	1.780000	286.494329
372		514.096560	1.840000	279.400304
373		518.255525	1.950000	265.772064
374		522.436860	1.910000	273.527152
375		526.640625	1.910000	275.728076
376		530.866880	1.840000	288.514609
377		535.115685	1.830000	292.412943
378		539.387100	1.870000	288.442299
379		543.681185	1.900000	286.147992
380		547.998000	1.950000	281.024615
381		552.337605	1.950000	283.250054
382		556.700060	1.920000	289.947948
383		561.085425	1.940000	289.219291
384		565.493760	1.890000	299.203048
385		569.925125	2.030000	280.751293
386		574.379580	1.970000	291.563239
387		578.857185	2.120000	273.045842
388		583.358000	2.140000	272.597196
389		587.882085	2.040000	288.177493
390		592.429500	2.110000	280.772275
391		597.000305	2.060000	289.805973
392		601.594560	2.140000	281.118953
393		606.212325	2.040000	297.162904
394		610.853660	2.140000	285.445636
395		615.518625	2.120000	290.338974
396		620.207280	2.160000	287.133000
397		624.919685	2.200000	284.054402
398		629.655900	2.190000	287.514110
399		634.415985	2.210000	287.066057
400		639.200000	2.200000	290.545455
401		644.008005	2.260000	284.959294
402		648.840060	2.290000	283.336271
403		653.696225	2.320000	281.765614
404		658.576560	2.340000	281.442974
405		663.481125	2.350000	282.332394
406		668.409980	2.330000	286.871236
407		673.363185	2.350000	286.537526
408		678.340800	2.350000	288.655660
409		683.342885	2.370000	288.330331
410		688.369500	2.480000	277.568347
411		693.420705	2.450000	283.028859
412		698.496560	2.490000	280.520707
413		703.597125	2.480000	283.708518
414		708.722460	2.500000	283.488984
415		713.872625	2.510000	284.411404
416		719.047680	2.440000	294.691672
417		724.247685	2.480000	292.035357
418		729.472700	2.520000	289.473294
419		734.722785	2.570000	285.884352
420		739.998000	2.590000	285.713514
421		745.298405	2.580000	288.875351
422		750.624060	2.610000	287.595425
423		755.975025	2.610000	289.645603
424		761.351360	2.620000	290.592122
425		766.753125	2.630000	291.541112
426		772.180380	2.630000	293.604707
427		777.633185	2.790000	278.721572
428		783.111600	3.140000	249.398599
429		788.615685	2.990000	263.751065
430		794.145500	3.000000	264.715167
431		799.701105	2.980000	268.356076
432		805.282560	2.920000	275.781699
433		810.889925	2.970000	273.026911
434		816.523260	3.010000	271.270186
435		822.182625	3.070000	267.811930
436		827.868080	3.160000	261.983570
437		833.579685	2.920000	285.472495
438		839.317500	2.890000	290.421280
439		845.081585	2.960000	285.500535
440		850.872000	2.930000	290.400000
441		856.688805	2.960000	289.421894
442		862.532060	2.940000	293.378252
443		868.401825	2.990000	290.435393
444		874.298160	3.020000	289.502702
445		880.221125	2.990000	294.388336
446		886.170780	3.010000	294.408897
447		892.147185	3.040000	293.469469
448		898.150400	2.980000	301.392752
449		904.180485	3.030000	298.409401
450		910.237500	3.080000	295.531656
451		916.321505	3.120000	293.692790
452		922.432560	3.160000	291.909038
453		928.570725	3.240000	286.595903
454		934.736060	3.290000	284.114304
455		940.928625	3.360000	280.038281
456		947.148480	3.260000	290.536344
457		953.395685	3.250000	293.352518
458		959.670300	3.290000	291.693100
459		965.972385	3.340000	289.213289
460		972.302000	3.410000	285.132551
461		978.659205	3.410000	286.996834
462		985.044060	3.350000	294.043003
463		991.456625	3.370000	294.200779
464		997.896960	3.360000	296.993143
465		1004.365125	3.460000	290.278938
466		1010.861180	3.530000	286.362941
467		1017.385185	3.570000	284.981845
468		1023.937200	3.570000	286.817143
469		1030.517285	3.550000	290.286559
470		1037.125500	3.570000	290.511345
471		1043.761905	3.580000	291.553605
472		1050.426560	3.580000	293.415240
473		1057.119525	3.650000	289.621788
474		1063.840860	3.700000	287.524557
475		1070.590625	3.700000	289.348818
476		1077.368880	3.730000	288.838842
477		1084.175685	3.700000	293.020455
478		1091.011100	3.720000	293.282554
479		1097.875185	3.730000	294.336511
480		1104.768000	3.680000	300.208696
481		1111.689605	3.760000	295.662129
482		1118.640060	3.800000	294.378963
483		1125.619425	3.860000	291.611250
484		1132.627760	3.920000	288.935653
485		1139.665125	3.900000	292.221827
486		1146.731580	3.970000	288.849264
487		1153.827185	3.930000	293.594704
488		1160.952000	3.950000	293.911899
489		1168.106085	3.990000	292.758417
490		1175.289500	4.010000	293.089651
491		1182.502305	4.060000	291.256725
492		1189.744560	4.140000	287.377913
493		1197.016325	4.070000	294.107205
494		1204.317660	4.140000	290.897986
495		1211.648625	4.110000	294.805018
496		1219.009280	4.100000	297.319337
497		1226.399685	4.130000	296.949076
498		1233.819900	4.290000	287.603706
499		1241.269985	4.310000	287.997676
500		1248.750000	4.320000	289.062500
501		1256.260005	4.290000	292.834500
502		1263.800060	4.310000	293.225072
503		1271.370225	4.330000	293.618990
504		1278.970560	4.320000	296.058000
505		1286.601125	4.330000	297.136518
506		1294.261980	4.390000	294.820497
507		1301.953185	4.440000	293.232699
508		1309.674800	4.550000	287.840615
509		1317.426885	4.450000	296.050985
510		1325.209500	4.500000	294.491000
511		1333.022705	4.530000	294.265498
512		1340.866560	4.660000	287.739605
513		1348.741125	4.580000	294.484962
514		1356.646460	4.610000	294.283397
515		1364.582625	4.700000	290.336729
516		1372.549680	4.740000	289.567443
517		1380.547685	4.670000	295.620489
518		1388.576700	4.720000	294.189979
519		1396.636785	4.720000	295.897624
520		1404.728000	4.730000	296.982664
521		1412.850405	4.760000	296.817312
522		1421.004060	4.830000	294.203739
523		1429.189025	5.080000	281.336422
524		1437.405360	5.390000	266.680030
525		1445.653125	5.280000	273.797940
526		1453.932380	5.330000	272.782811
527		1462.243185	5.330000	274.342061
528		1470.585600	5.390000	272.835918
529		1478.959685	5.480000	269.883154
530		1487.365500	5.550000	267.993784
531		1495.803105	5.640000	265.213316
532		1504.272560	5.390000	279.085818
533		1512.773925	5.240000	288.697314
534		1521.307260	5.290000	287.581713
535		1529.872625	5.300000	288.655212
536		1538.470080	5.290000	290.826102
537		1547.099685	5.340000	289.719042
538		1555.761500	5.430000	286.512247
539		1564.455585	5.510000	283.930233
540		1573.182000	5.540000	283.967870
541		1581.940805	5.500000	287.625601
542		1590.732060	5.560000	286.102888
543		1599.555825	5.530000	289.250601
544		1608.412160	5.350000	300.637787
545		1617.301125	5.450000	296.752500
546		1626.222780	5.570000	291.961002
547		1635.177185	5.580000	293.042506
548		1644.164400	5.670000	289.976085
549		1653.184485	5.730000	288.513872
550		1662.237500	5.680000	292.647447
551		1671.323505	5.680000	294.247096
552		1680.442560	5.680000	295.852563
553		1689.594725	5.700000	296.420127
554		1698.780060	5.790000	293.398974
555		1707.998625	5.870000	290.970805
556		1717.250480	5.910000	290.566917
557		1726.535685	5.870000	294.128737
558		1735.854300	5.930000	292.724165
559		1745.206385	5.940000	293.805789
560		1754.592000	5.840000	300.443836
561		1764.011205	5.940000	296.971583
562		1773.464060	6.000000	295.577343
563		1782.950625	6.100000	292.286988
564		1792.470960	6.310000	284.068298
565		1802.025125	6.180000	291.589826
566		1811.613180	6.260000	289.395077
567		1821.235185	6.300000	289.084950
568		1830.891200	6.270000	292.008166
569		1840.581285	6.370000	288.945257
570		1850.305500	6.360000	290.928538
571		1860.063905	6.460000	287.935589
572		1869.856560	6.360000	294.002604
573		1879.683525	6.300000	298.362464
574		1889.544860	6.350000	297.566120
575		1899.440625	6.320000	300.544403
576		1909.370880	6.330000	301.638370
577		1919.335685	6.450000	297.571424
578		1929.335100	6.470000	298.197079
579		1939.369185	6.610000	293.399272
580		1949.438000	6.660000	292.708408
581		1959.541605	6.630000	295.556803
582		1969.680060	6.720000	293.107152
583		1979.853425	6.690000	295.942216
584		1990.061760	6.790000	293.087152
585		2000.305125	6.970000	286.987823
586		2010.583580	6.810000	295.239880
587		2020.897185	6.870000	294.162618
588		2031.246000	6.930000	293.109091
589		2041.630085	6.870000	297.180507
590		2052.049500	6.920000	296.538945
591		2062.504305	7.050000	292.553802
592		2072.994560	6.990000	296.565745
593		2083.520325	7.110000	293.040833
594		2094.081660	7.170000	292.061598
595		2104.678625	7.270000	289.501874
596		2115.311280	7.340000	288.189548
597		2125.979685	7.290000	291.629586
598		2136.683900	7.340000	291.101349
599		2147.423985	7.420000	289.410241
600		2158.200000	7.640000	282.486911
601		2169.012005	7.490000	289.587718
602		2179.860060	7.560000	288.341278
603		2190.744225	7.680000	285.253154
604		2201.664560	7.740000	284.452786
605		2212.621125	7.670000	288.477331
606		2223.613980	7.780000	285.811566
607		2234.643185	7.810000	286.125888
608		2245.708800	7.530000	298.234900
609		2256.810885	7.560000	298.519958
610		2267.949500	7.620000	297.631168
611		2279.124705	7.760000	293.701637
612		2290.336560	7.800000	293.632892
613		2301.585125	7.800000	295.075016
614		2312.870460	7.860000	294.258328
615		2324.192625	7.950000	292.351274
616		2335.551680	7.870000	296.766414
617		2346.947685	7.910000	296.706408
618		2358.380700	8.020000	294.062431
619		2369.850785	8.090000	292.935820
620		2381.358000	8.160000	291.833088
621		2392.902405	8.110000	295.055784
622		2404.484060	8.140000	295.391162
623		2416.103025	8.170000	295.728644
624		2427.759360	8.050000	301.585014
625		2439.453125	8.190000	297.857524
626		2451.184380	8.270000	296.394726
627		2462.953185	8.340000	295.318128
628		2474.759600	8.420000	293.914442
629		2486.603685	8.370000	297.085267
630		2498.485500	8.450000	295.678757
631		2510.405105	8.430000	297.794200
632		2522.362560	8.450000	298.504445
633		2534.357925	8.500000	298.159756
634		2546.391260	8.550000	297.823539
635		2558.462625	8.630000	296.461486
636		2570.572080	8.680000	296.148857
637		2582.719685	8.610000	299.967443
638		2594.905500	8.770000	295.884322
639		2607.129585	8.700000	299.670067
640		2619.392000	8.650000	302.819884
641		2631.692805	8.820000	298.377869
642		2644.032060	8.890000	297.416430
643		2656.409825	8.970000	296.143793
644		2668.826160	9.120000	292.634447
645		2681.281125	8.990000	298.251516
646		2693.774780	9.060000	297.326135
647		2706.307185	9.080000	298.051452
648		2718.878400	9.090000	299.106535
649		2731.488485	9.160000	298.197433
